     Time[s]      Injection_Rate[m^3/s]
  0.00000000E+00  0.00000000E+00
  0.78277886E+05  0.61180807E-09
  0.15655577E+06  0.12055736E-08
  0.23483366E+06  0.17812965E-08
  0.31311155E+06  0.23389769E-08
  0.39138943E+06  0.28786147E-08
  0.46966732E+06  0.34002100E-08
  0.54794521E+06  0.39037627E-08
  0.62622309E+06  0.43892728E-08
  0.70450098E+06  0.48567404E-08
  0.78277886E+06  0.53061655E-08
  0.86105675E+06  0.57375479E-08
  0.93933464E+06  0.61622313E-08
  0.10176125E+07  0.65925254E-08
  0.10958904E+07  0.70284303E-08
  0.11741683E+07  0.74699459E-08
  0.12524462E+07  0.79170722E-08
  0.13307241E+07  0.83698093E-08
  0.14090020E+07  0.88281571E-08
  0.14872798E+07  0.92921156E-08
  0.15655577E+07  0.97616849E-08
  0.16438356E+07  0.10236865E-07
  0.17221135E+07  0.10717656E-07
  0.18003914E+07  0.11193419E-07
  0.18786693E+07  0.11663678E-07
  0.19569472E+07  0.12128434E-07
  0.20352250E+07  0.12587686E-07
  0.21135029E+07  0.13041435E-07
  0.21917808E+07  0.13489680E-07
  0.22700587E+07  0.13932422E-07
  0.23483366E+07  0.14369660E-07
  0.24266145E+07  0.14801395E-07
  0.25048924E+07  0.15227626E-07
  0.25831703E+07  0.15652048E-07
  0.26614481E+07  0.16079426E-07
  0.27397260E+07  0.16509760E-07
  0.28180039E+07  0.16943049E-07
  0.28962818E+07  0.17379294E-07
  0.29745597E+07  0.17818495E-07
  0.30528376E+07  0.18260651E-07
  0.31311155E+07  0.18705763E-07
  0.32093933E+07  0.19153831E-07
  0.32876712E+07  0.19604854E-07
  0.33659491E+07  0.20058832E-07
  0.34442270E+07  0.20510111E-07
  0.35225049E+07  0.20958185E-07
  0.36007828E+07  0.21403052E-07
  0.36790607E+07  0.21844714E-07
  0.37573386E+07  0.22283171E-07
  0.38356164E+07  0.22718421E-07
  0.39138943E+07  0.23150466E-07
  0.39921722E+07  0.23579305E-07
  0.40704501E+07  0.24004938E-07
  0.41487280E+07  0.24427366E-07
  0.42270059E+07  0.24848649E-07
  0.43052838E+07  0.25271958E-07
  0.43835616E+07  0.25697292E-07
  0.44618395E+07  0.26124652E-07
  0.45401174E+07  0.26554038E-07
  0.46183953E+07  0.26985450E-07
  0.46966732E+07  0.27418887E-07
  0.47749511E+07  0.27854350E-07
  0.48532290E+07  0.28291839E-07
  0.49315068E+07  0.28731353E-07
  0.50097847E+07  0.29172893E-07
  0.50880626E+07  0.29612727E-07
  0.51663405E+07  0.30050306E-07
  0.52446184E+07  0.30485628E-07
  0.53228963E+07  0.30918694E-07
  0.54011742E+07  0.31349504E-07
  0.54794521E+07  0.31778058E-07
  0.55577299E+07  0.32204356E-07
  0.56360078E+07  0.32628399E-07
  0.57142857E+07  0.33050185E-07
  0.57925636E+07  0.33469715E-07
  0.58708415E+07  0.33888326E-07
  0.59491194E+07  0.34308484E-07
  0.60273973E+07  0.34730189E-07
  0.61056751E+07  0.35153443E-07
  0.61839530E+07  0.35578245E-07
  0.62622309E+07  0.36004594E-07
  0.63405088E+07  0.36432491E-07
  0.64187867E+07  0.36861936E-07
  0.64970646E+07  0.37292929E-07
  0.65753425E+07  0.37725470E-07
  0.66536204E+07  0.38159558E-07
  0.67318982E+07  0.38592469E-07
  0.68101761E+07  0.39023629E-07
  0.68884540E+07  0.39453050E-07
  0.69667319E+07  0.39880731E-07
  0.70450098E+07  0.40306673E-07
  0.71232877E+07  0.40730876E-07
  0.72015656E+07  0.41153338E-07
  0.72798434E+07  0.41574062E-07
  0.73581213E+07  0.41993046E-07
  0.74363992E+07  0.42410290E-07
  0.75146771E+07  0.42826718E-07
  0.75929550E+07  0.43244403E-07
  0.76712329E+07  0.43663343E-07
  0.77495108E+07  0.44083539E-07
  0.78277886E+07  0.44504992E-07
  0.79060665E+07  0.44927700E-07
  0.79843444E+07  0.45351664E-07
  0.80626223E+07  0.45776883E-07
  0.81409002E+07  0.46203359E-07
  0.82191781E+07  0.46631091E-07
  0.82974560E+07  0.47060078E-07
  0.83757339E+07  0.47488222E-07
  0.84540117E+07  0.47914950E-07
  0.85322896E+07  0.48340263E-07
  0.86105675E+07  0.48764160E-07
  0.86888454E+07  0.49186641E-07
  0.87671233E+07  0.49607707E-07
  0.88454012E+07  0.50027357E-07
  0.89236791E+07  0.50445592E-07
  0.90019569E+07  0.50862411E-07
  0.90802348E+07  0.51277814E-07
  0.91585127E+07  0.51692459E-07
  0.92367906E+07  0.52108163E-07
  0.93150685E+07  0.52524925E-07
  0.93933464E+07  0.52942746E-07
  0.94716243E+07  0.53361626E-07
  0.95499022E+07  0.53781565E-07
  0.96281800E+07  0.54202563E-07
  0.97064579E+07  0.54624619E-07
  0.97847358E+07  0.55047734E-07
  0.98630137E+07  0.55471908E-07
  0.99412916E+07  0.55897141E-07
  0.10019569E+08  0.56321758E-07
  0.10097847E+08  0.56137875E-07
  0.10176125E+08  0.55970833E-07
  0.10254403E+08  0.55820639E-07
  0.10332681E+08  0.55687295E-07
  0.10410959E+08  0.55570800E-07
  0.10489237E+08  0.55471153E-07
  0.10567515E+08  0.55388355E-07
  0.10645793E+08  0.55322406E-07
  0.10724070E+08  0.55273305E-07
  0.10802348E+08  0.55241524E-07
  0.10880626E+08  0.55228702E-07
  0.10958904E+08  0.55217593E-07
  0.11037182E+08  0.55201791E-07
  0.11115460E+08  0.55181294E-07
  0.11193738E+08  0.55156104E-07
  0.11272016E+08  0.55126219E-07
  0.11350294E+08  0.55091640E-07
  0.11428571E+08  0.55052367E-07
  0.11506849E+08  0.55008400E-07
  0.11585127E+08  0.54959738E-07
  0.11663405E+08  0.54905018E-07
  0.11741683E+08  0.54845973E-07
  0.11819961E+08  0.54791400E-07
  0.11898239E+08  0.54741298E-07
  0.11976517E+08  0.54695667E-07
  0.12054795E+08  0.54654507E-07
  0.12133072E+08  0.54617818E-07
  0.12211350E+08  0.54585600E-07
  0.12289628E+08  0.54557854E-07
  0.12367906E+08  0.54534578E-07
  0.12446184E+08  0.54516106E-07
  0.12524462E+08  0.54503945E-07
  0.12602740E+08  0.54492293E-07
  0.12681018E+08  0.54478493E-07
  0.12759295E+08  0.54462547E-07
  0.12837573E+08  0.54444455E-07
  0.12915851E+08  0.54424216E-07
  0.12994129E+08  0.54401831E-07
  0.13072407E+08  0.54377299E-07
  0.13150685E+08  0.54350621E-07
  0.13228963E+08  0.54321796E-07
  0.13307241E+08  0.54289694E-07
  0.13385519E+08  0.54254749E-07
  0.13463796E+08  0.54222098E-07
  0.13542074E+08  0.54191738E-07
  0.13620352E+08  0.54163674E-07
  0.13698630E+08  0.54137906E-07
  0.13776908E+08  0.54114433E-07
  0.13855186E+08  0.54093257E-07
  0.13933464E+08  0.54074376E-07
  0.14011742E+08  0.54057792E-07
  0.14090020E+08  0.54043727E-07
  0.14168297E+08  0.54033593E-07
  0.14246575E+08  0.54024024E-07
  0.14324853E+08  0.54013154E-07
  0.14403131E+08  0.54000983E-07
  0.14481409E+08  0.53987512E-07
  0.14559687E+08  0.53972740E-07
  0.14637965E+08  0.53956668E-07
  0.14716243E+08  0.53939295E-07
  0.14794521E+08  0.53920621E-07
  0.14872798E+08  0.53900646E-07
  0.14951076E+08  0.53878425E-07
  0.15029354E+08  0.53853892E-07
  0.15107632E+08  0.53830801E-07
  0.15185910E+08  0.53809152E-07
  0.15264188E+08  0.53788945E-07
  0.15342466E+08  0.53770181E-07
  0.15420744E+08  0.53752860E-07
  0.15499022E+08  0.53736980E-07
  0.15577299E+08  0.53722543E-07
  0.15655577E+08  0.53709549E-07
  0.15733855E+08  0.53698135E-07
  0.15812133E+08  0.53689635E-07
  0.15890411E+08  0.53681763E-07
  0.15968689E+08  0.53673002E-07
  0.16046967E+08  0.53663349E-07
  0.16125245E+08  0.53652807E-07
  0.16203523E+08  0.53641374E-07
  0.16281800E+08  0.53629050E-07
  0.16360078E+08  0.53615836E-07
  0.16438356E+08  0.53601732E-07
  0.16516634E+08  0.53586738E-07
  0.16594912E+08  0.53570056E-07
  0.16673190E+08  0.53551354E-07
  0.16751468E+08  0.53533655E-07
  0.16829746E+08  0.53516959E-07
  0.16908023E+08  0.53501261E-07
  0.16986301E+08  0.53486568E-07
  0.17064579E+08  0.53472878E-07
  0.17142857E+08  0.53460191E-07
  0.17221135E+08  0.53448507E-07
  0.17299413E+08  0.53437827E-07
  0.17377691E+08  0.53428220E-07
  0.17455969E+08  0.53420953E-07
  0.17534247E+08  0.53414357E-07
  0.17612524E+08  0.53407107E-07
  0.17690802E+08  0.53399203E-07
  0.17769080E+08  0.53390645E-07
  0.17847358E+08  0.53381433E-07
  0.17925636E+08  0.53371567E-07
  0.18003914E+08  0.53361047E-07
  0.18082192E+08  0.53349873E-07
  0.18160470E+08  0.53338045E-07
  0.18238748E+08  0.53324888E-07
  0.18317025E+08  0.53309903E-07
  0.18395303E+08  0.53295662E-07
  0.18473581E+08  0.53282164E-07
  0.18551859E+08  0.53269409E-07
  0.18630137E+08  0.53257398E-07
  0.18708415E+08  0.53246129E-07
  0.18786693E+08  0.53235604E-07
  0.18864971E+08  0.53225823E-07
  0.18943249E+08  0.53216784E-07
  0.19021526E+08  0.53208500E-07
  0.19099804E+08  0.53202186E-07
  0.19178082E+08  0.53196569E-07
  0.19256360E+08  0.53190449E-07
  0.19334638E+08  0.53183825E-07
  0.19412916E+08  0.53176698E-07
  0.19491194E+08  0.53169067E-07
  0.19569472E+08  0.53160933E-07
  0.19647750E+08  0.53152296E-07
  0.19726027E+08  0.53143155E-07
  0.19804305E+08  0.53133511E-07
  0.19882583E+08  0.53122792E-07
  0.19960861E+08  0.53110395E-07
  0.20039139E+08  0.53098557E-07
  0.20117417E+08  0.53087294E-07
  0.20195695E+08  0.53076605E-07
  0.20273973E+08  0.53066491E-07
  0.20352250E+08  0.53056952E-07
  0.20430528E+08  0.53047988E-07
  0.20508806E+08  0.53039599E-07
  0.20587084E+08  0.53031784E-07
  0.20665362E+08  0.53024544E-07
  0.20743640E+08  0.53018973E-07
  0.20821918E+08  0.53014115E-07
  0.20900196E+08  0.53008856E-07
  0.20978474E+08  0.53003196E-07
  0.21056751E+08  0.52997136E-07
  0.21135029E+08  0.52990675E-07
  0.21213307E+08  0.52983813E-07
  0.21291585E+08  0.52976551E-07
  0.21369863E+08  0.52968888E-07
  0.21448141E+08  0.52960824E-07
  0.21526419E+08  0.52951876E-07
  0.21604697E+08  0.52941438E-07
  0.21682975E+08  0.52931361E-07
  0.21761252E+08  0.52921742E-07
  0.21839530E+08  0.52912583E-07
  0.21917808E+08  0.52903882E-07
  0.21996086E+08  0.52895640E-07
  0.22074364E+08  0.52887858E-07
  0.22152642E+08  0.52880535E-07
  0.22230920E+08  0.52873672E-07
  0.22309198E+08  0.52867267E-07
  0.22387476E+08  0.52862293E-07
  0.22465753E+08  0.52858043E-07
  0.22544031E+08  0.52853465E-07
  0.22622309E+08  0.52848560E-07
  0.22700587E+08  0.52843328E-07
  0.22778865E+08  0.52837769E-07
  0.22857143E+08  0.52831883E-07
  0.22935421E+08  0.52825669E-07
  0.23013699E+08  0.52819128E-07
  0.23091977E+08  0.52812260E-07
  0.23170254E+08  0.52804657E-07
  0.23248532E+08  0.52795710E-07
  0.23326810E+08  0.52786979E-07
  0.23405088E+08  0.52778623E-07
  0.23483366E+08  0.52770641E-07
  0.23561644E+08  0.52763036E-07
  0.23639922E+08  0.52755805E-07
  0.23718200E+08  0.52748949E-07
  0.23796477E+08  0.52742468E-07
  0.23874755E+08  0.52736363E-07
  0.23953033E+08  0.52730632E-07
  0.24031311E+08  0.52726144E-07
  0.24109589E+08  0.52722386E-07
  0.24187867E+08  0.52718355E-07
  0.24266145E+08  0.52714052E-07
  0.24344423E+08  0.52709476E-07
  0.24422701E+08  0.52704627E-07
  0.24500978E+08  0.52699506E-07
  0.24579256E+08  0.52694112E-07
  0.24657534E+08  0.52688445E-07
  0.24735812E+08  0.52682505E-07
  0.24814090E+08  0.52675952E-07
  0.24892368E+08  0.52668173E-07
  0.24970646E+08  0.52660497E-07
  0.25048924E+08  0.52653135E-07
  0.25127202E+08  0.52646085E-07
  0.25205479E+08  0.52639347E-07
  0.25283757E+08  0.52632923E-07
  0.25362035E+08  0.52626811E-07
  0.25440313E+08  0.52621013E-07
  0.25518591E+08  0.52615529E-07
  0.25596869E+08  0.52610357E-07
  0.25675147E+08  0.52606273E-07
  0.25753425E+08  0.52602923E-07
  0.25831703E+08  0.52599342E-07
  0.25909980E+08  0.52595531E-07
  0.25988258E+08  0.52591488E-07
  0.26066536E+08  0.52587215E-07
  0.26144814E+08  0.52582710E-07
  0.26223092E+08  0.52577975E-07
  0.26301370E+08  0.52573009E-07
  0.26379648E+08  0.52567811E-07
  0.26457926E+08  0.52562100E-07
  0.26536204E+08  0.52555260E-07
  0.26614481E+08  0.52548437E-07
  0.26692759E+08  0.52541878E-07
  0.26771037E+08  0.52535583E-07
  0.26849315E+08  0.52529554E-07
  0.26927593E+08  0.52523790E-07
  0.27005871E+08  0.52518290E-07
  0.27084149E+08  0.52513055E-07
  0.27162427E+08  0.52508085E-07
  0.27240705E+08  0.52503380E-07
  0.27318982E+08  0.52499633E-07
  0.27397260E+08  0.52496623E-07
  0.27475538E+08  0.52493415E-07
  0.27553816E+08  0.52490009E-07
  0.27632094E+08  0.52486404E-07
  0.27710372E+08  0.52482601E-07
  0.27788650E+08  0.52478600E-07
  0.27866928E+08  0.52474400E-07
  0.27945205E+08  0.52470002E-07
  0.28023483E+08  0.52465406E-07
  0.28101761E+08  0.52460381E-07
  0.28180039E+08  0.52454308E-07
  0.28258317E+08  0.52448181E-07
  0.28336595E+08  0.52442281E-07
  0.28414873E+08  0.52436609E-07
  0.28493151E+08  0.52431163E-07
  0.28571429E+08  0.52425945E-07
  0.28649706E+08  0.52420954E-07
  0.28727984E+08  0.52416190E-07
  0.28806262E+08  0.52411655E-07
  0.28884540E+08  0.52407347E-07
  0.28962818E+08  0.52403888E-07
  0.29041096E+08  0.52401168E-07
  0.29119374E+08  0.52398275E-07
  0.29197652E+08  0.52395210E-07
  0.29275930E+08  0.52391973E-07
  0.29354207E+08  0.52388564E-07
  0.29432485E+08  0.52384983E-07
  0.29510763E+08  0.52381229E-07
  0.29589041E+08  0.52377303E-07
  0.29667319E+08  0.52373205E-07
  0.29745597E+08  0.52368751E-07
  0.29823875E+08  0.52363318E-07
  0.29902153E+08  0.52357773E-07
  0.29980431E+08  0.52352426E-07
  0.30058708E+08  0.52347275E-07
  0.30136986E+08  0.52342321E-07
  0.30215264E+08  0.52337565E-07
  0.30293542E+08  0.52333006E-07
  0.30371820E+08  0.52328644E-07
  0.30450098E+08  0.52324479E-07
  0.30528376E+08  0.52320511E-07
  0.30606654E+08  0.52317297E-07
  0.30684932E+08  0.52314822E-07
  0.30763209E+08  0.52312196E-07
  0.30841487E+08  0.52309419E-07
  0.30919765E+08  0.52306491E-07
  0.30998043E+08  0.52303412E-07
  0.31076321E+08  0.52300182E-07
  0.31154599E+08  0.52296801E-07
  0.31232877E+08  0.52293270E-07
  0.31311155E+08  0.52289587E-07
  0.31389432E+08  0.52285610E-07
  0.31467710E+08  0.52280716E-07
  0.31545988E+08  0.52275661E-07
  0.31624266E+08  0.52270778E-07
  0.31702544E+08  0.52266069E-07
  0.31780822E+08  0.52261531E-07
  0.31859100E+08  0.52257167E-07
  0.31937378E+08  0.52252975E-07
  0.32015656E+08  0.52248956E-07
  0.32093933E+08  0.52245110E-07
  0.32172211E+08  0.52241437E-07
  0.32250489E+08  0.52238436E-07
  0.32328767E+08  0.52236174E-07
  0.32407045E+08  0.52233779E-07
  0.32485323E+08  0.52231251E-07
  0.32563601E+08  0.52228589E-07
  0.32641879E+08  0.52225793E-07
  0.32720157E+08  0.52222864E-07
  0.32798434E+08  0.52219801E-07
  0.32876712E+08  0.52216605E-07
  0.32954990E+08  0.52213275E-07
  0.33033268E+08  0.52209707E-07
  0.33111546E+08  0.52205274E-07
  0.33189824E+08  0.52200639E-07
  0.33268102E+08  0.52196156E-07
  0.33346380E+08  0.52191826E-07
  0.33424658E+08  0.52187648E-07
  0.33502935E+08  0.52183622E-07
  0.33581213E+08  0.52179750E-07
  0.33659491E+08  0.52176030E-07
  0.33737769E+08  0.52172462E-07
  0.33816047E+08  0.52169047E-07
  0.33894325E+08  0.52166229E-07
  0.33972603E+08  0.52164152E-07
  0.34050881E+08  0.52161955E-07
  0.34129159E+08  0.52159639E-07
  0.34207436E+08  0.52157204E-07
  0.34285714E+08  0.52154651E-07
  0.34363992E+08  0.52151978E-07
  0.34442270E+08  0.52149187E-07
  0.34520548E+08  0.52146276E-07
  0.34598826E+08  0.52143247E-07
  0.34677104E+08  0.52140027E-07
  0.34755382E+08  0.52135991E-07
  0.34833659E+08  0.52131715E-07
  0.34911937E+08  0.52127576E-07
  0.34990215E+08  0.52123572E-07
  0.35068493E+08  0.52119704E-07
  0.35146771E+08  0.52115972E-07
  0.35225049E+08  0.52112376E-07
  0.35303327E+08  0.52108915E-07
  0.35381605E+08  0.52105590E-07
  0.35459883E+08  0.52102401E-07
  0.35538160E+08  0.52099745E-07
  0.35616438E+08  0.52097830E-07
  0.35694716E+08  0.52095807E-07
  0.35772994E+08  0.52093679E-07
  0.35851272E+08  0.52091443E-07
  0.35929550E+08  0.52089101E-07
  0.36007828E+08  0.52086652E-07
  0.36086106E+08  0.52084097E-07
  0.36164384E+08  0.52081434E-07
  0.36242661E+08  0.52078665E-07
  0.36320939E+08  0.52075751E-07
  0.36399217E+08  0.52072060E-07
  0.36477495E+08  0.52068099E-07
  0.36555773E+08  0.52064261E-07
  0.36634051E+08  0.52060544E-07
  0.36712329E+08  0.52056948E-07
  0.36790607E+08  0.52053474E-07
  0.36868885E+08  0.52050122E-07
  0.36947162E+08  0.52046891E-07
  0.37025440E+08  0.52043782E-07
  0.37103718E+08  0.52040794E-07
  0.37181996E+08  0.52038280E-07
  0.37260274E+08  0.52036506E-07
  0.37338552E+08  0.52034636E-07
  0.37416830E+08  0.52032669E-07
  0.37495108E+08  0.52030606E-07
  0.37573386E+08  0.52028447E-07
  0.37651663E+08  0.52026192E-07
  0.37729941E+08  0.52023840E-07
  0.37808219E+08  0.52021393E-07
  0.37886497E+08  0.52018848E-07
  0.37964775E+08  0.52016198E-07
  0.38043053E+08  0.52012809E-07
  0.38121331E+08  0.52009123E-07
  0.38199609E+08  0.52005546E-07
  0.38277886E+08  0.52002080E-07
  0.38356164E+08  0.51998722E-07
  0.38434442E+08  0.51995475E-07
  0.38512720E+08  0.51992336E-07
  0.38590998E+08  0.51989307E-07
  0.38669276E+08  0.51986388E-07
  0.38747554E+08  0.51983578E-07
  0.38825832E+08  0.51981190E-07
  0.38904110E+08  0.51979542E-07
  0.38982387E+08  0.51977807E-07
  0.39060665E+08  0.51975985E-07
  0.39138943E+08  0.51974076E-07
  0.39217221E+08  0.51972079E-07
  0.39295499E+08  0.51969995E-07
  0.39373777E+08  0.51967824E-07
  0.39452055E+08  0.51965566E-07
  0.39530333E+08  0.51963220E-07
  0.39608611E+08  0.51960787E-07
  0.39686888E+08  0.51957666E-07
  0.39765166E+08  0.51954225E-07
  0.39843444E+08  0.51950883E-07
  0.39921722E+08  0.51947641E-07
  0.40000000E+08  0.51944497E-07
