     Time[s]      Injection_moment[Nm]
  0.00000000E+00  0.00000000E+00
  0.78277886E+05  0.15291332E+16
  0.15655577E+06  0.78750357E+18
  0.23483366E+06  0.23579233E+19
  0.31311155E+06  0.47127884E+19
  0.39138943E+06  0.78520987E+19
  0.46966732E+06  0.11775854E+20
  0.54794521E+06  0.16484055E+20
  0.62622309E+06  0.21976702E+20
  0.70450098E+06  0.28253793E+20
  0.78277886E+06  0.35315330E+20
  0.86105675E+06  0.43161312E+20
  0.93933464E+06  0.51536660E+20
  0.10176125E+07  0.60164563E+20
  0.10958904E+07  0.69045023E+20
  0.11741683E+07  0.78178038E+20
  0.12524462E+07  0.87563609E+20
  0.13307241E+07  0.97201737E+20
  0.14090020E+07  0.10709242E+21
  0.14872798E+07  0.11723566E+21
  0.15655577E+07  0.12763145E+21
  0.16438356E+07  0.13827981E+21
  0.17221135E+07  0.14918071E+21
  0.18003914E+07  0.16036413E+21
  0.18786693E+07  0.17183140E+21
  0.19569472E+07  0.18358253E+21
  0.20352250E+07  0.19561750E+21
  0.21135029E+07  0.20793633E+21
  0.21917808E+07  0.22053901E+21
  0.22700587E+07  0.23342555E+21
  0.23483366E+07  0.24659593E+21
  0.24266145E+07  0.26005017E+21
  0.25048924E+07  0.27378826E+21
  0.25831703E+07  0.28774268E+21
  0.26614481E+07  0.30182633E+21
  0.27397260E+07  0.31603923E+21
  0.28180039E+07  0.33038137E+21
  0.28962818E+07  0.34485275E+21
  0.29745597E+07  0.35945338E+21
  0.30528376E+07  0.37418325E+21
  0.31311155E+07  0.38904236E+21
  0.32093933E+07  0.40403072E+21
  0.32876712E+07  0.41914831E+21
  0.33659491E+07  0.43439515E+21
  0.34442270E+07  0.44980673E+21
  0.35225049E+07  0.46538630E+21
  0.36007828E+07  0.48113386E+21
  0.36790607E+07  0.49704941E+21
  0.37573386E+07  0.51313295E+21
  0.38356164E+07  0.52938448E+21
  0.39138943E+07  0.54580401E+21
  0.39921722E+07  0.56239153E+21
  0.40704501E+07  0.57914704E+21
  0.41487280E+07  0.59607055E+21
  0.42270059E+07  0.61312896E+21
  0.43052838E+07  0.63027139E+21
  0.43835616E+07  0.64749784E+21
  0.44618395E+07  0.66480831E+21
  0.45401174E+07  0.68220280E+21
  0.46183953E+07  0.69968130E+21
  0.46966732E+07  0.71724383E+21
  0.47749511E+07  0.73489037E+21
  0.48532290E+07  0.75262094E+21
  0.49315068E+07  0.77043552E+21
  0.50097847E+07  0.78833412E+21
  0.50880626E+07  0.80634598E+21
  0.51663405E+07  0.82447541E+21
  0.52446184E+07  0.84272240E+21
  0.53228963E+07  0.86108696E+21
  0.54011742E+07  0.87956909E+21
  0.54794521E+07  0.89816878E+21
  0.55577299E+07  0.91688605E+21
  0.56360078E+07  0.93572087E+21
  0.57142857E+07  0.95467327E+21
  0.57925636E+07  0.97374323E+21
  0.58708415E+07  0.99291093E+21
  0.59491194E+07  0.10121397E+22
  0.60273973E+07  0.10314295E+22
  0.61056751E+07  0.10507804E+22
  0.61839530E+07  0.10701924E+22
  0.62622309E+07  0.10896655E+22
  0.63405088E+07  0.11091996E+22
  0.64187867E+07  0.11287948E+22
  0.64970646E+07  0.11484511E+22
  0.65753425E+07  0.11681685E+22
  0.66536204E+07  0.11879469E+22
  0.67318982E+07  0.12078101E+22
  0.68101761E+07  0.12277630E+22
  0.68884540E+07  0.12478056E+22
  0.69667319E+07  0.12679378E+22
  0.70450098E+07  0.12881597E+22
  0.71232877E+07  0.13084712E+22
  0.72015656E+07  0.13288724E+22
  0.72798434E+07  0.13493632E+22
  0.73581213E+07  0.13699437E+22
  0.74363992E+07  0.13906138E+22
  0.75146771E+07  0.14113606E+22
  0.75929550E+07  0.14321547E+22
  0.76712329E+07  0.14529962E+22
  0.77495108E+07  0.14738851E+22
  0.78277886E+07  0.14948213E+22
  0.79060665E+07  0.15158050E+22
  0.79843444E+07  0.15368360E+22
  0.80626223E+07  0.15579143E+22
  0.81409002E+07  0.15790401E+22
  0.82191781E+07  0.16002132E+22
  0.82974560E+07  0.16214337E+22
  0.83757339E+07  0.16427209E+22
  0.84540117E+07  0.16640802E+22
  0.85322896E+07  0.16855116E+22
  0.86105675E+07  0.17070150E+22
  0.86888454E+07  0.17285904E+22
  0.87671233E+07  0.17502378E+22
  0.88454012E+07  0.17719574E+22
  0.89236791E+07  0.17937489E+22
  0.90019569E+07  0.18156125E+22
  0.90802348E+07  0.18375481E+22
  0.91585127E+07  0.18595468E+22
  0.92367906E+07  0.18815839E+22
  0.93150685E+07  0.19036593E+22
  0.93933464E+07  0.19257731E+22
  0.94716243E+07  0.19479252E+22
  0.95499022E+07  0.19701156E+22
  0.96281800E+07  0.19923444E+22
  0.97064579E+07  0.20146115E+22
  0.97847358E+07  0.20369169E+22
  0.98630137E+07  0.20592608E+22
  0.99412916E+07  0.20816429E+22
  0.10019569E+08  0.21040795E+22
  0.10097847E+08  0.21263787E+22
  0.10176125E+08  0.21479536E+22
  0.10254403E+08  0.21688040E+22
  0.10332681E+08  0.21889299E+22
  0.10410959E+08  0.22083313E+22
  0.10489237E+08  0.22270083E+22
  0.10567515E+08  0.22449608E+22
  0.10645793E+08  0.22621888E+22
  0.10724070E+08  0.22786923E+22
  0.10802348E+08  0.22944652E+22
  0.10880626E+08  0.23094855E+22
  0.10958904E+08  0.23241412E+22
  0.11037182E+08  0.23385763E+22
  0.11115460E+08  0.23527908E+22
  0.11193738E+08  0.23667847E+22
  0.11272016E+08  0.23805581E+22
  0.11350294E+08  0.23941109E+22
  0.11428571E+08  0.24074431E+22
  0.11506849E+08  0.24205547E+22
  0.11585127E+08  0.24334457E+22
  0.11663405E+08  0.24461296E+22
  0.11741683E+08  0.24586056E+22
  0.11819961E+08  0.24708490E+22
  0.11898239E+08  0.24828598E+22
  0.11976517E+08  0.24946379E+22
  0.12054795E+08  0.25061833E+22
  0.12133072E+08  0.25174961E+22
  0.12211350E+08  0.25285762E+22
  0.12289628E+08  0.25394237E+22
  0.12367906E+08  0.25500386E+22
  0.12446184E+08  0.25604165E+22
  0.12524462E+08  0.25705377E+22
  0.12602740E+08  0.25805086E+22
  0.12681018E+08  0.25903774E+22
  0.12759295E+08  0.26001442E+22
  0.12837573E+08  0.26098091E+22
  0.12915851E+08  0.26193720E+22
  0.12994129E+08  0.26288329E+22
  0.13072407E+08  0.26381918E+22
  0.13150685E+08  0.26474488E+22
  0.13228963E+08  0.26566038E+22
  0.13307241E+08  0.26656681E+22
  0.13385519E+08  0.26746414E+22
  0.13463796E+08  0.26834912E+22
  0.13542074E+08  0.26922177E+22
  0.13620352E+08  0.27008207E+22
  0.13698630E+08  0.27093003E+22
  0.13776908E+08  0.27176564E+22
  0.13855186E+08  0.27258891E+22
  0.13933464E+08  0.27339984E+22
  0.14011742E+08  0.27419843E+22
  0.14090020E+08  0.27498439E+22
  0.14168297E+08  0.27575591E+22
  0.14246575E+08  0.27651840E+22
  0.14324853E+08  0.27727485E+22
  0.14403131E+08  0.27802527E+22
  0.14481409E+08  0.27876964E+22
  0.14559687E+08  0.27950798E+22
  0.14637965E+08  0.28024029E+22
  0.14716243E+08  0.28096655E+22
  0.14794521E+08  0.28168678E+22
  0.14872798E+08  0.28240096E+22
  0.14951076E+08  0.28311008E+22
  0.15029354E+08  0.28381432E+22
  0.15107632E+08  0.28451074E+22
  0.15185910E+08  0.28519934E+22
  0.15264188E+08  0.28588012E+22
  0.15342466E+08  0.28655307E+22
  0.15420744E+08  0.28721821E+22
  0.15499022E+08  0.28787553E+22
  0.15577299E+08  0.28852502E+22
  0.15655577E+08  0.28916670E+22
  0.15733855E+08  0.28980038E+22
  0.15812133E+08  0.29042438E+22
  0.15890411E+08  0.29104209E+22
  0.15968689E+08  0.29165578E+22
  0.16046967E+08  0.29226543E+22
  0.16125245E+08  0.29287106E+22
  0.16203523E+08  0.29347266E+22
  0.16281800E+08  0.29407023E+22
  0.16360078E+08  0.29466377E+22
  0.16438356E+08  0.29525328E+22
  0.16516634E+08  0.29583876E+22
  0.16594912E+08  0.29642103E+22
  0.16673190E+08  0.29700049E+22
  0.16751468E+08  0.29757450E+22
  0.16829746E+08  0.29814306E+22
  0.16908023E+08  0.29870619E+22
  0.16986301E+08  0.29926386E+22
  0.17064579E+08  0.29981609E+22
  0.17142857E+08  0.30036287E+22
  0.17221135E+08  0.30090421E+22
  0.17299413E+08  0.30144010E+22
  0.17377691E+08  0.30197045E+22
  0.17455969E+08  0.30249369E+22
  0.17534247E+08  0.30301217E+22
  0.17612524E+08  0.30352775E+22
  0.17690802E+08  0.30404045E+22
  0.17769080E+08  0.30455025E+22
  0.17847358E+08  0.30505716E+22
  0.17925636E+08  0.30556118E+22
  0.18003914E+08  0.30606232E+22
  0.18082192E+08  0.30656056E+22
  0.18160470E+08  0.30705590E+22
  0.18238748E+08  0.30754907E+22
  0.18317025E+08  0.30804057E+22
  0.18395303E+08  0.30852805E+22
  0.18473581E+08  0.30901151E+22
  0.18551859E+08  0.30949093E+22
  0.18630137E+08  0.30996633E+22
  0.18708415E+08  0.31043770E+22
  0.18786693E+08  0.31090504E+22
  0.18864971E+08  0.31136835E+22
  0.18943249E+08  0.31182763E+22
  0.19021526E+08  0.31228287E+22
  0.19099804E+08  0.31273257E+22
  0.19178082E+08  0.31317845E+22
  0.19256360E+08  0.31362215E+22
  0.19334638E+08  0.31406368E+22
  0.19412916E+08  0.31450302E+22
  0.19491194E+08  0.31494019E+22
  0.19569472E+08  0.31537517E+22
  0.19647750E+08  0.31580798E+22
  0.19726027E+08  0.31623861E+22
  0.19804305E+08  0.31666706E+22
  0.19882583E+08  0.31709394E+22
  0.19960861E+08  0.31751987E+22
  0.20039139E+08  0.31794271E+22
  0.20117417E+08  0.31836244E+22
  0.20195695E+08  0.31877906E+22
  0.20273973E+08  0.31919258E+22
  0.20352250E+08  0.31960300E+22
  0.20430528E+08  0.32001030E+22
  0.20508806E+08  0.32041450E+22
  0.20587084E+08  0.32081559E+22
  0.20665362E+08  0.32121358E+22
  0.20743640E+08  0.32160712E+22
  0.20821918E+08  0.32199747E+22
  0.20900196E+08  0.32238613E+22
  0.20978474E+08  0.32277308E+22
  0.21056751E+08  0.32315833E+22
  0.21135029E+08  0.32354188E+22
  0.21213307E+08  0.32392372E+22
  0.21291585E+08  0.32430387E+22
  0.21369863E+08  0.32468231E+22
  0.21448141E+08  0.32505905E+22
  0.21526419E+08  0.32543460E+22
  0.21604697E+08  0.32580960E+22
  0.21682975E+08  0.32618223E+22
  0.21761252E+08  0.32655238E+22
  0.21839530E+08  0.32692007E+22
  0.21917808E+08  0.32728528E+22
  0.21996086E+08  0.32764802E+22
  0.22074364E+08  0.32800828E+22
  0.22152642E+08  0.32836608E+22
  0.22230920E+08  0.32872140E+22
  0.22309198E+08  0.32907425E+22
  0.22387476E+08  0.32942344E+22
  0.22465753E+08  0.32976990E+22
  0.22544031E+08  0.33011499E+22
  0.22622309E+08  0.33045872E+22
  0.22700587E+08  0.33080108E+22
  0.22778865E+08  0.33114207E+22
  0.22857143E+08  0.33148170E+22
  0.22935421E+08  0.33181996E+22
  0.23013699E+08  0.33215685E+22
  0.23091977E+08  0.33249238E+22
  0.23170254E+08  0.33282698E+22
  0.23248532E+08  0.33316129E+22
  0.23326810E+08  0.33349374E+22
  0.23405088E+08  0.33382419E+22
  0.23483366E+08  0.33415261E+22
  0.23561644E+08  0.33447903E+22
  0.23639922E+08  0.33480343E+22
  0.23718200E+08  0.33512581E+22
  0.23796477E+08  0.33544618E+22
  0.23874755E+08  0.33576454E+22
  0.23953033E+08  0.33608088E+22
  0.24031311E+08  0.33639415E+22
  0.24109589E+08  0.33670502E+22
  0.24187867E+08  0.33701477E+22
  0.24266145E+08  0.33732340E+22
  0.24344423E+08  0.33763090E+22
  0.24422701E+08  0.33793729E+22
  0.24500978E+08  0.33824256E+22
  0.24579256E+08  0.33854670E+22
  0.24657534E+08  0.33884973E+22
  0.24735812E+08  0.33915163E+22
  0.24814090E+08  0.33945278E+22
  0.24892368E+08  0.33975382E+22
  0.24970646E+08  0.34005341E+22
  0.25048924E+08  0.34035132E+22
  0.25127202E+08  0.34064755E+22
  0.25205479E+08  0.34094212E+22
  0.25283757E+08  0.34123501E+22
  0.25362035E+08  0.34152622E+22
  0.25440313E+08  0.34181576E+22
  0.25518591E+08  0.34210363E+22
  0.25596869E+08  0.34238982E+22
  0.25675147E+08  0.34267340E+22
  0.25753425E+08  0.34295483E+22
  0.25831703E+08  0.34323532E+22
  0.25909980E+08  0.34351488E+22
  0.25988258E+08  0.34379350E+22
  0.26066536E+08  0.34407118E+22
  0.26144814E+08  0.34434793E+22
  0.26223092E+08  0.34462375E+22
  0.26301370E+08  0.34489863E+22
  0.26379648E+08  0.34517257E+22
  0.26457926E+08  0.34544588E+22
  0.26536204E+08  0.34571922E+22
  0.26614481E+08  0.34599140E+22
  0.26692759E+08  0.34626217E+22
  0.26771037E+08  0.34653153E+22
  0.26849315E+08  0.34679947E+22
  0.26927593E+08  0.34706601E+22
  0.27005871E+08  0.34733113E+22
  0.27084149E+08  0.34759483E+22
  0.27162427E+08  0.34785713E+22
  0.27240705E+08  0.34811801E+22
  0.27318982E+08  0.34837664E+22
  0.27397260E+08  0.34863332E+22
  0.27475538E+08  0.34888920E+22
  0.27553816E+08  0.34914429E+22
  0.27632094E+08  0.34939859E+22
  0.27710372E+08  0.34965209E+22
  0.27788650E+08  0.34990480E+22
  0.27866928E+08  0.35015672E+22
  0.27945205E+08  0.35040785E+22
  0.28023483E+08  0.35065819E+22
  0.28101761E+08  0.35090798E+22
  0.28180039E+08  0.35115790E+22
  0.28258317E+08  0.35140690E+22
  0.28336595E+08  0.35165469E+22
  0.28414873E+08  0.35190128E+22
  0.28493151E+08  0.35214665E+22
  0.28571429E+08  0.35239082E+22
  0.28649706E+08  0.35263378E+22
  0.28727984E+08  0.35287554E+22
  0.28806262E+08  0.35311608E+22
  0.28884540E+08  0.35335541E+22
  0.28962818E+08  0.35359280E+22
  0.29041096E+08  0.35382837E+22
  0.29119374E+08  0.35406327E+22
  0.29197652E+08  0.35429749E+22
  0.29275930E+08  0.35453103E+22
  0.29354207E+08  0.35476389E+22
  0.29432485E+08  0.35499607E+22
  0.29510763E+08  0.35522757E+22
  0.29589041E+08  0.35545839E+22
  0.29667319E+08  0.35568854E+22
  0.29745597E+08  0.35591820E+22
  0.29823875E+08  0.35614806E+22
  0.29902153E+08  0.35637720E+22
  0.29980431E+08  0.35660529E+22
  0.30058708E+08  0.35683234E+22
  0.30136986E+08  0.35705834E+22
  0.30215264E+08  0.35728330E+22
  0.30293542E+08  0.35750722E+22
  0.30371820E+08  0.35773009E+22
  0.30450098E+08  0.35795191E+22
  0.30528376E+08  0.35817270E+22
  0.30606654E+08  0.35839177E+22
  0.30684932E+08  0.35860916E+22
  0.30763209E+08  0.35882597E+22
  0.30841487E+08  0.35904218E+22
  0.30919765E+08  0.35925781E+22
  0.30998043E+08  0.35947285E+22
  0.31076321E+08  0.35968730E+22
  0.31154599E+08  0.35990117E+22
  0.31232877E+08  0.36011445E+22
  0.31311155E+08  0.36032714E+22
  0.31389432E+08  0.36053939E+22
  0.31467710E+08  0.36075189E+22
  0.31545988E+08  0.36096383E+22
  0.31624266E+08  0.36117486E+22
  0.31702544E+08  0.36138498E+22
  0.31780822E+08  0.36159419E+22
  0.31859100E+08  0.36180248E+22
  0.31937378E+08  0.36200986E+22
  0.32015656E+08  0.36221633E+22
  0.32093933E+08  0.36242189E+22
  0.32172211E+08  0.36262654E+22
  0.32250489E+08  0.36282968E+22
  0.32328767E+08  0.36303124E+22
  0.32407045E+08  0.36323229E+22
  0.32485323E+08  0.36343283E+22
  0.32563601E+08  0.36363285E+22
  0.32641879E+08  0.36383236E+22
  0.32720157E+08  0.36403136E+22
  0.32798434E+08  0.36422984E+22
  0.32876712E+08  0.36442781E+22
  0.32954990E+08  0.36462527E+22
  0.33033268E+08  0.36482232E+22
  0.33111546E+08  0.36501966E+22
  0.33189824E+08  0.36521657E+22
  0.33268102E+08  0.36541268E+22
  0.33346380E+08  0.36560799E+22
  0.33424658E+08  0.36580250E+22
  0.33502935E+08  0.36599620E+22
  0.33581213E+08  0.36618910E+22
  0.33659491E+08  0.36638120E+22
  0.33737769E+08  0.36657250E+22
  0.33816047E+08  0.36676299E+22
  0.33894325E+08  0.36695216E+22
  0.33972603E+08  0.36713983E+22
  0.34050881E+08  0.36732705E+22
  0.34129159E+08  0.36751382E+22
  0.34207436E+08  0.36770013E+22
  0.34285714E+08  0.36788600E+22
  0.34363992E+08  0.36807141E+22
  0.34442270E+08  0.36825637E+22
  0.34520548E+08  0.36844088E+22
  0.34598826E+08  0.36862494E+22
  0.34677104E+08  0.36880862E+22
  0.34755382E+08  0.36899261E+22
  0.34833659E+08  0.36917629E+22
  0.34911937E+08  0.36935926E+22
  0.34990215E+08  0.36954152E+22
  0.35068493E+08  0.36972307E+22
  0.35146771E+08  0.36990390E+22
  0.35225049E+08  0.37008403E+22
  0.35303327E+08  0.37026344E+22
  0.35381605E+08  0.37044214E+22
  0.35459883E+08  0.37062013E+22
  0.35538160E+08  0.37079694E+22
  0.35616438E+08  0.37097233E+22
  0.35694716E+08  0.37114732E+22
  0.35772994E+08  0.37132190E+22
  0.35851272E+08  0.37149609E+22
  0.35929550E+08  0.37166988E+22
  0.36007828E+08  0.37184326E+22
  0.36086106E+08  0.37201625E+22
  0.36164384E+08  0.37218884E+22
  0.36242661E+08  0.37236102E+22
  0.36320939E+08  0.37253285E+22
  0.36399217E+08  0.37270501E+22
  0.36477495E+08  0.37287695E+22
  0.36555773E+08  0.37304826E+22
  0.36634051E+08  0.37321894E+22
  0.36712329E+08  0.37338898E+22
  0.36790607E+08  0.37355838E+22
  0.36868885E+08  0.37372715E+22
  0.36947162E+08  0.37389529E+22
  0.37025440E+08  0.37406279E+22
  0.37103718E+08  0.37422966E+22
  0.37181996E+08  0.37439548E+22
  0.37260274E+08  0.37455994E+22
  0.37338552E+08  0.37472404E+22
  0.37416830E+08  0.37488779E+22
  0.37495108E+08  0.37505118E+22
  0.37573386E+08  0.37521421E+22
  0.37651663E+08  0.37537688E+22
  0.37729941E+08  0.37553920E+22
  0.37808219E+08  0.37570116E+22
  0.37886497E+08  0.37586277E+22
  0.37964775E+08  0.37602403E+22
  0.38043053E+08  0.37618563E+22
  0.38121331E+08  0.37634711E+22
  0.38199609E+08  0.37650801E+22
  0.38277886E+08  0.37666835E+22
  0.38356164E+08  0.37682811E+22
  0.38434442E+08  0.37698731E+22
  0.38512720E+08  0.37714594E+22
  0.38590998E+08  0.37730400E+22
  0.38669276E+08  0.37746149E+22
  0.38747554E+08  0.37761841E+22
  0.38825832E+08  0.37777440E+22
  0.38904110E+08  0.37792907E+22
  0.38982387E+08  0.37808343E+22
  0.39060665E+08  0.37823746E+22
  0.39138943E+08  0.37839118E+22
  0.39217221E+08  0.37854458E+22
  0.39295499E+08  0.37869766E+22
  0.39373777E+08  0.37885041E+22
  0.39452055E+08  0.37900285E+22
  0.39530333E+08  0.37915497E+22
  0.39608611E+08  0.37930677E+22
  0.39686888E+08  0.37945891E+22
  0.39765166E+08  0.37961099E+22
  0.39843444E+08  0.37976255E+22
  0.39921722E+08  0.37991360E+22
  0.40000000E+08  0.38006414E+22
